# Aufgabe 3.1, beide Filament sind an, Strom verstellen
# I_H [A],     I_D [A]
6,    	       0.35
5.96,	       0.32
5.92,	       0.28
5.88,	       0.26
5.84,	       0.23
5.80,	       0.20
5.76,	       0.18
5.72,	       0.16
5.68,	       0.14
5.64,	       0.13
5.60,	       0.11
5.56,	       0.10
5.52,	       0.09
5.46,	       0.07
5.40,	       0.06
5.34,	       0.05
5.28,	       0.04
5.23,	       0.03
5.16,	       0.02
5.10,	       0.02
5.04,	       0.01
5.00,	       0.01
4.48,	       0.00